Profile Data:
Time                    	P                       	T    	Hu                      	Ws   	Wd          	Long.    	Lat.     	Geopot	Dewp.
[sec]                   	[hPa]                   	[°C] 	[%]                     	[m/s]	[°]         	[°]      	[°]      	[m]   	[°C]
0                       	870.1                   	1.0  	100                     	0.5  	120         	85.289630	27.681797	1311  	1.0
1                       	869.2                   	1.3  	98                      	0.5  	120         	85.289633	27.681782	1319  	1.1
2                       	868.4                   	1.7  	97                      	0.5  	120         	85.289637	27.681767	1327  	1.2
3                       	867.5                   	2.0  	95                      	0.6  	119         	85.289640	27.681752	1335  	1.4
4                       	866.7                   	2.3  	94                      	0.6  	119         	85.289644	27.681737	1343  	1.5
5                       	865.8                   	2.7  	92                      	0.6  	119         	85.289647	27.681722	1351  	1.6
6                       	864.9                   	3.0  	91                      	0.6  	118         	85.289651	27.681707	1359  	1.7
7                       	864.1                   	3.4  	89                      	0.7  	116         	85.289654	27.681692	1367  	1.8
8                       	863.2                   	3.7  	88                      	0.7  	111         	85.289658	27.681677	1375  	1.9
9                       	862.4                   	3.9  	88                      	0.7  	355         	85.289662	27.681663	1383  	2.1
10                      	861.5                   	3.9  	88                      	0.7  	309         	85.289665	27.681648	1391  	2.1
11                      	860.7                   	3.9  	88                      	0.8  	305         	85.289669	27.681633	1399  	2.0
12                      	859.8                   	3.8  	87                      	0.8  	304         	85.289672	27.681618	1407  	2.0
13                      	859.0                   	3.8  	87                      	0.8  	303         	85.289676	27.681603	1415  	1.9
14                      	858.1                   	3.8  	87                      	0.8  	303         	85.289679	27.681588	1423  	1.8
15                      	857.3                   	3.7  	87                      	0.8  	303         	85.289683	27.681573	1431  	1.8
16                      	856.5                   	3.7  	87                      	0.9  	302         	85.289686	27.681558	1439  	1.7
17                      	855.6                   	3.7  	87                      	0.9  	302         	85.289692	27.681552	1447  	1.6
18                      	854.8                   	3.6  	86                      	0.9  	302         	85.289700	27.681551	1455  	1.6
19                      	854.0                   	3.6  	86                      	0.9  	302         	85.289708	27.681550	1462  	1.5
20                      	853.3                   	3.6  	86                      	1.0  	302         	85.289716	27.681549	1469  	1.5
21                      	852.6                   	3.5  	86                      	1.0  	302         	85.289723	27.681548	1476  	1.5
22                      	851.9                   	3.5  	86                      	1.0  	302         	85.289731	27.681547	1483  	1.5
23                      	851.1                   	3.5  	87                      	1.0  	302         	85.289739	27.681546	1490  	1.5
24                      	850.4                   	3.5  	87                      	1.1  	302         	85.289747	27.681545	1497  	1.5
25                      	849.7                   	3.5  	87                      	1.1  	302         	85.289754	27.681544	1504  	1.5
26                      	849.0                   	3.5  	87                      	1.1  	302         	85.289762	27.681543	1511  	1.6
27                      	848.2                   	3.5  	87                      	1.1  	302         	85.289770	27.681542	1518  	1.6
28                      	847.5                   	3.5  	87                      	1.1  	302         	85.289778	27.681542	1524  	1.6
29                      	846.8                   	3.5  	88                      	1.2  	301         	85.289785	27.681541	1531  	1.6
30                      	846.1                   	3.4  	88                      	1.2  	301         	85.289793	27.681540	1538  	1.6
31                      	845.4                   	3.4  	88                      	1.2  	301         	85.289801	27.681539	1545  	1.6
32                      	844.6                   	3.4  	88                      	1.2  	301         	85.289808	27.681538	1552  	1.7
33                      	843.9                   	3.4  	88                      	1.1  	301         	85.289816	27.681537	1559  	1.7
34                      	843.2                   	3.4  	88                      	1.1  	301         	85.289824	27.681536	1566  	1.7
35                      	842.5                   	3.4  	89                      	1.1  	300         	85.289832	27.681535	1573  	1.7
36                      	841.8                   	3.4  	89                      	1.1  	300         	85.289839	27.681534	1580  	1.8
37                      	841.1                   	3.4  	89                      	1.1  	300         	85.289847	27.681533	1587  	1.8
38                      	840.4                   	3.4  	89                      	1.0  	299         	85.289855	27.681532	1593  	1.8
39                      	839.6                   	3.4  	90                      	1.0  	299         	85.289863	27.681531	1600  	1.8
40                      	838.9                   	3.4  	90                      	1.0  	298         	85.289870	27.681531	1607  	1.9
41                      	838.2                   	3.4  	90                      	1.0  	297         	85.289878	27.681530	1614  	1.9
42                      	837.5                   	3.4  	90                      	1.0  	296         	85.289886	27.681529	1621  	1.9
43                      	836.8                   	3.4  	90                      	0.9  	295         	85.289894	27.681528	1628  	2.0
44                      	836.1                   	3.4  	91                      	0.9  	294         	85.289901	27.681527	1635  	2.0
45                      	835.4                   	3.4  	91                      	0.9  	291         	85.289909	27.681526	1642  	2.0
46                      	834.7                   	3.4  	91                      	0.9  	288         	85.289902	27.681529	1649  	2.1
47                      	834.0                   	3.4  	91                      	0.9  	282         	85.289892	27.681532	1655  	2.1
48                      	833.3                   	3.5  	91                      	0.8  	272         	85.289882	27.681535	1662  	2.1
49                      	832.6                   	3.5  	90                      	0.8  	248         	85.289873	27.681539	1668  	2.1
50                      	831.9                   	3.6  	90                      	0.8  	203         	85.289863	27.681542	1675  	2.1
51                      	831.3                   	3.6  	90                      	0.8  	167         	85.289853	27.681545	1682  	2.1
52                      	830.6                   	3.7  	90                      	0.8  	152         	85.289843	27.681548	1688  	2.1
53                      	829.9                   	3.7  	89                      	0.8  	144         	85.289834	27.681552	1695  	2.1
54                      	829.2                   	3.8  	89                      	0.7  	140         	85.289824	27.681555	1702  	2.2
55                      	828.5                   	3.8  	89                      	0.7  	137         	85.289814	27.681558	1708  	2.2
56                      	827.9                   	3.9  	89                      	0.7  	135         	85.289805	27.681562	1715  	2.2
57                      	827.2                   	3.9  	89                      	0.7  	134         	85.289795	27.681565	1722  	2.2
58                      	826.5                   	4.0  	88                      	0.7  	133         	85.289785	27.681568	1728  	2.2
59                      	825.8                   	4.0  	88                      	0.6  	132         	85.289775	27.681571	1735  	2.2
60                      	825.2                   	4.1  	88                      	0.6  	131         	85.289766	27.681575	1742  	2.2
61                      	824.5                   	4.1  	87                      	0.6  	131         	85.289756	27.681578	1748  	2.1
62                      	823.8                   	4.1  	86                      	0.6  	130         	85.289746	27.681581	1755  	1.9
63                      	823.1                   	4.1  	85                      	0.6  	130         	85.289737	27.681585	1762  	1.8
64                      	822.5                   	4.0  	85                      	0.6  	129         	85.289727	27.681588	1768  	1.7
65                      	821.8                   	4.0  	84                      	0.6  	129         	85.289717	27.681591	1775  	1.6
66                      	821.1                   	4.0  	83                      	0.6  	128         	85.289708	27.681594	1782  	1.4
67                      	820.5                   	4.0  	82                      	0.6  	128         	85.289698	27.681598	1788  	1.3
68                      	819.8                   	4.0  	82                      	0.7  	127         	85.289688	27.681601	1795  	1.2
69                      	819.1                   	4.0  	81                      	0.7  	127         	85.289678	27.681604	1802  	1.1
70                      	818.4                   	4.0  	80                      	0.7  	127         	85.289669	27.681608	1808  	0.9
71                      	817.8                   	4.0  	79                      	0.7  	126         	85.289659	27.681611	1815  	0.8
72                      	817.1                   	4.0  	79                      	0.7  	126         	85.289649	27.681614	1821  	0.7
73                      	816.4                   	4.0  	78                      	0.7  	125         	85.289640	27.681617	1828  	0.5
74                      	815.8                   	4.0  	77                      	0.7  	125         	85.289630	27.681621	1835  	0.4
75                      	815.1                   	4.1  	76                      	0.7  	125         	85.289620	27.681624	1841  	0.3
76                      	814.5                   	4.1  	75                      	0.7  	124         	85.289610	27.681627	1848  	0.2
77                      	813.8                   	4.1  	75                      	0.7  	124         	85.289614	27.681632	1855  	0.1
78                      	813.1                   	4.2  	74                      	0.7  	123         	85.289622	27.681638	1861  	-0.1
79                      	812.5                   	4.2  	73                      	0.7  	123         	85.289631	27.681643	1868  	-0.2
80                      	811.8                   	4.2  	72                      	0.7  	123         	85.289640	27.681649	1874  	-0.3
81                      	811.2                   	4.3  	71                      	0.7  	122         	85.289648	27.681654	1881  	-0.4
82                      	810.5                   	4.3  	71                      	0.7  	122         	85.289657	27.681660	1887  	-0.6
83                      	809.9                   	4.3  	70                      	0.7  	122         	85.289666	27.681666	1894  	-0.7
84                      	809.2                   	4.4  	69                      	0.7  	121         	85.289674	27.681671	1900  	-0.8
85                      	808.6                   	4.4  	68                      	0.7  	121         	85.289683	27.681677	1907  	-0.9
86                      	807.9                   	4.4  	67                      	0.7  	121         	85.289691	27.681682	1913  	-1.1
87                      	807.3                   	4.5  	67                      	0.7  	120         	85.289700	27.681688	1920  	-1.2
88                      	806.7                   	4.5  	66                      	0.7  	120         	85.289709	27.681693	1926  	-1.3
89                      	806.0                   	4.5  	65                      	0.8  	120         	85.289717	27.681699	1933  	-1.4
90                      	805.4                   	4.6  	65                      	0.8  	119         	85.289726	27.681704	1939  	-1.5
91                      	804.7                   	4.6  	64                      	0.8  	125         	85.289734	27.681710	1946  	-1.5
92                      	804.1                   	4.7  	64                      	0.9  	133         	85.289743	27.681716	1952  	-1.6
93                      	803.4                   	4.7  	63                      	0.9  	143         	85.289752	27.681721	1959  	-1.7
94                      	802.8                   	4.7  	62                      	1.0  	156         	85.289760	27.681727	1965  	-1.8
95                      	802.2                   	4.8  	62                      	1.0  	171         	85.289769	27.681732	1972  	-1.9
96                      	801.5                   	4.8  	61                      	1.1  	186         	85.289777	27.681738	1978  	-2.0
97                      	800.9                   	4.8  	61                      	1.1  	200         	85.289786	27.681743	1985  	-2.1
98                      	800.2                   	4.9  	60                      	1.2  	212         	85.289795	27.681749	1991  	-2.2
99                      	799.6                   	4.9  	59                      	1.2  	220         	85.289803	27.681754	1998  	-2.3
100                     	799.0                   	4.9  	59                      	1.3  	227         	85.289812	27.681760	2004  	-2.4
101                     	798.3                   	4.9  	59                      	1.3  	232         	85.289821	27.681766	2011  	-2.4
102                     	797.7                   	4.9  	58                      	1.4  	236         	85.289829	27.681771	2017  	-2.5
103                     	797.0                   	4.9  	58                      	1.4  	239         	85.289838	27.681777	2024  	-2.6
104                     	796.4                   	4.8  	58                      	1.5  	242         	85.289846	27.681782	2030  	-2.7
105                     	795.8                   	4.8  	58                      	1.5  	244         	85.289855	27.681788	2037  	-2.7
106                     	795.2                   	4.8  	58                      	1.6  	246         	85.289864	27.681793	2044  	-2.8
107                     	794.5                   	4.7  	58                      	1.7  	247         	85.289887	27.681793	2050  	-2.9
108                     	793.9                   	4.7  	57                      	1.7  	248         	85.289924	27.681789	2056  	-3.0
109                     	793.3                   	4.7  	57                      	1.8  	249         	85.289961	27.681784	2063  	-3.0
110                     	792.6                   	4.6  	57                      	1.8  	250         	85.289998	27.681779	2069  	-3.1
111                     	792.0                   	4.6  	57                      	1.9  	253         	85.290034	27.681774	2075  	-3.2
112                     	791.4                   	4.5  	57                      	2.0  	255         	85.290071	27.681770	2082  	-3.3
113                     	790.8                   	4.5  	57                      	2.1  	257         	85.290108	27.681765	2088  	-3.3
114                     	790.2                   	4.5  	56                      	2.2  	259         	85.290144	27.681760	2095  	-3.4
115                     	789.6                   	4.5  	56                      	2.3  	261         	85.290181	27.681755	2101  	-3.5
116                     	788.9                   	4.4  	56                      	2.4  	263         	85.290218	27.681751	2107  	-3.6
117                     	788.3                   	4.4  	56                      	2.5  	265         	85.290254	27.681746	2114  	-3.6
118                     	787.7                   	4.4  	55                      	2.6  	266         	85.290291	27.681741	2120  	-3.7
119                     	787.1                   	4.4  	55                      	2.7  	267         	85.290328	27.681737	2126  	-3.8
120                     	786.5                   	4.3  	55                      	2.8  	269         	85.290365	27.681732	2133  	-3.9
121                     	785.9                   	4.3  	55                      	2.9  	270         	85.290401	27.681727	2139  	-3.9
122                     	785.2                   	4.3  	55                      	3.0  	271         	85.290438	27.681722	2146  	-4.0
123                     	784.6                   	4.3  	54                      	3.1  	272         	85.290475	27.681718	2152  	-4.1
124                     	784.0                   	4.3  	54                      	3.2  	273         	85.290511	27.681713	2158  	-4.2
125                     	783.4                   	4.2  	54                      	3.3  	274         	85.290548	27.681708	2165  	-4.3
126                     	782.8                   	4.2  	54                      	3.4  	274         	85.290585	27.681703	2171  	-4.3
127                     	782.2                   	4.2  	53                      	3.4  	275         	85.290621	27.681699	2177  	-4.4
128                     	781.6                   	4.2  	53                      	3.5  	276         	85.290658	27.681694	2184  	-4.5
129                     	780.9                   	4.2  	53                      	3.6  	277         	85.290695	27.681689	2190  	-4.6
130                     	780.3                   	4.2  	52                      	3.7  	277         	85.290731	27.681684	2197  	-4.7
131                     	779.7                   	4.2  	52                      	3.8  	278         	85.290768	27.681680	2203  	-4.8
132                     	779.1                   	4.2  	52                      	3.8  	278         	85.290805	27.681675	2209  	-4.9
133                     	778.5                   	4.1  	51                      	3.9  	279         	85.290842	27.681670	2216  	-4.9
134                     	777.9                   	4.1  	51                      	3.9  	279         	85.290878	27.681666	2222  	-5.0
135                     	777.3                   	4.1  	51                      	3.9  	280         	85.290915	27.681661	2228  	-5.1
136                     	776.7                   	4.1  	51                      	4.0  	280         	85.290952	27.681656	2235  	-5.2
137                     	776.1                   	4.1  	50                      	4.0  	280         	85.290991	27.681650	2241  	-5.3
138                     	775.5                   	4.1  	50                      	4.1  	281         	85.291041	27.681638	2248  	-5.4
139                     	774.9                   	4.1  	50                      	4.1  	281         	85.291091	27.681625	2254  	-5.5
140                     	774.2                   	4.1  	49                      	4.2  	282         	85.291141	27.681613	2260  	-5.5
141                     	773.6                   	4.1  	49                      	4.2  	282         	85.291191	27.681601	2267  	-5.6
142                     	773.0                   	4.0  	49                      	4.2  	282         	85.291242	27.681589	2273  	-5.7
143                     	772.4                   	4.0  	49                      	4.3  	283         	85.291292	27.681576	2279  	-5.7
144                     	771.8                   	4.0  	49                      	4.3  	283         	85.291342	27.681564	2286  	-5.8
145                     	771.2                   	4.0  	48                      	4.4  	284         	85.291392	27.681552	2292  	-5.9
146                     	770.6                   	3.9  	48                      	4.4  	284         	85.291442	27.681540	2298  	-6.0
147                     	770.0                   	3.9  	48                      	4.5  	284         	85.291492	27.681528	2305  	-6.0
148                     	769.4                   	3.9  	48                      	4.5  	285         	85.291543	27.681515	2311  	-6.1
